,Time,Mass Flow,Flow Temperature,Temperature 1,Internal Temperature 1,Temperature 2,Internal Temperature 2,Temperature 3,Internal Temperature 3,Tank Pressure,Inlet Pressure,Valve Position
0,1639773574.9067543,0.32,23.99,0.0,0.0,0.0,0.0,0.0,0.0,-0.4394531,25.1953125,89.75
1,1639773575.201917,0.33,24.08,0.0,0.0,0.0,0.0,0.0,0.0,-0.6835937,25.0976562,89.25
2,1639773575.5112932,0.32,24.06,0.0,0.0,0.0,0.0,0.0,0.0,-0.6835937,24.8046875,88.5
3,1639773575.8050652,0.32,24.02,0.0,0.0,0.0,0.0,0.0,0.0,-0.6835937,25.0,87.75
4,1639773576.1060977,0.33,24.0,0.0,0.0,0.0,0.0,0.0,0.0,-0.6835937,24.9023437,87.25
5,1639773576.3948972,0.31,24.02,0.0,0.0,0.0,0.0,0.0,0.0,-0.4394531,25.2929687,86.5
6,1639773576.7052157,0.33,24.03,0.0,0.0,0.0,0.0,0.0,0.0,-0.4394531,24.21875,85.75
7,1639773577.0002477,0.33,24.07,0.0,0.0,0.0,0.0,0.0,0.0,-0.6835937,22.8515625,85.25
8,1639773577.2932317,0.32,24.06,0.0,0.0,0.0,0.0,0.0,0.0,-0.6835937,27.0507812,84.5
9,1639773577.602115,0.32,24.0,0.0,0.0,0.0,0.0,0.0,0.0,-0.6835937,28.2226562,83.75
10,1639773577.8971295,0.32,24.07,0.0,0.0,0.0,0.0,0.0,0.0,-0.6835937,28.125,83.0
11,1639773578.2051823,0.32,24.0,0.0,0.0,0.0,0.0,0.0,0.0,-0.6835937,27.8320312,82.5
12,1639773578.5001206,0.33,23.98,0.0,0.0,0.0,0.0,0.0,0.0,-0.6835937,27.4414062,81.75
13,1639773578.7917747,0.33,24.03,0.0,0.0,0.0,0.0,0.0,0.0,-0.9277344,27.2460937,81.0
14,1639773579.1017509,0.33,24.0,0.0,0.0,0.0,0.0,0.0,0.0,-0.6835937,26.953125,80.25
15,1639773579.3930674,0.33,23.99,0.0,0.0,0.0,0.0,0.0,0.0,-0.6835937,26.6601562,79.75
16,1639773579.688448,0.33,24.01,0.0,0.0,0.0,0.0,0.0,0.0,-0.6835937,26.3671875,79.0
17,1639773580.0047727,0.31,24.08,0.0,0.0,0.0,0.0,0.0,0.0,-0.6835937,25.9765625,78.25
18,1639773580.2943618,-0.06,23.99,0.0,0.0,0.0,0.0,0.0,0.0,-0.1953125,25.6835937,77.75
19,1639773580.589259,-0.08,24.02,0.0,0.0,0.0,0.0,0.0,0.0,0.2929687,25.78125,77.0
20,1639773580.8991625,-7.26,24.09,0.0,0.0,0.0,0.0,0.0,0.0,10.0585937,26.3671875,76.25
21,1639773581.2060628,1.29,24.1,0.0,0.0,0.0,0.0,0.0,0.0,28.3691406,24.8046875,75.5
22,1639773581.5013916,0.26,24.11,0.0,0.0,0.0,0.0,0.0,0.0,36.6699218,24.8046875,75.0
23,1639773581.7988076,1.6,24.11,0.0,0.0,0.0,0.0,0.0,0.0,40.5761718,25.390625,74.25
24,1639773582.0899262,1.86,24.11,0.0,0.0,0.0,0.0,0.0,0.0,42.2851562,26.2695312,73.5
25,1639773582.3995583,1.81,24.06,0.0,0.0,0.0,0.0,0.0,0.0,43.2617187,26.953125,72.75
26,1639773582.6931293,1.73,24.17,0.0,0.0,0.0,0.0,0.0,0.0,43.75,27.6367187,72.25
27,1639773582.9880128,1.64,24.0,0.0,0.0,0.0,0.0,0.0,0.0,43.2617187,28.2226562,71.5
28,1639773583.2961693,1.72,24.07,0.0,0.0,0.0,0.0,0.0,0.0,44.2382812,28.8085937,70.75
29,1639773583.5957139,1.65,24.0,0.0,0.0,0.0,0.0,0.0,0.0,43.9941406,29.1992187,70.25
30,1639773583.888565,1.58,24.07,0.0,0.0,0.0,0.0,0.0,0.0,44.4824218,29.5898437,69.5
31,1639773584.184871,1.54,24.04,0.0,0.0,0.0,0.0,0.0,0.0,43.9941406,30.078125,69.0
32,1639773584.492265,1.48,24.07,0.0,0.0,0.0,0.0,0.0,0.0,44.2382812,30.46875,68.25
33,1639773584.7865129,1.44,24.04,0.0,0.0,0.0,0.0,0.0,0.0,44.2382812,30.5664062,67.5
34,1639773585.094218,1.41,24.04,0.0,0.0,0.0,0.0,0.0,0.0,44.2382812,31.3476562,66.75
35,1639773585.3873699,1.45,24.05,0.0,0.0,0.0,0.0,0.0,0.0,43.9941406,31.5429687,66.25
36,1639773585.695338,1.27,24.09,0.0,0.0,0.0,0.0,0.0,0.0,45.2148437,31.8359375,65.5
37,1639773585.9911187,27.96,24.06,0.0,0.0,0.0,0.0,0.0,0.0,39.84375,31.8359375,64.75
38,1639773586.2861073,53.94,24.05,0.0,0.0,0.0,0.0,0.0,0.0,29.1015625,32.3242187,64.0
39,1639773586.597152,52.05,24.02,0.0,0.0,0.0,0.0,0.0,0.0,25.4394531,32.8125,63.5
40,1639773586.8903193,59.12,23.93,0.0,0.0,0.0,0.0,0.0,0.0,22.0214843,33.203125,62.75
41,1639773587.2011528,82.66,23.97,0.0,0.0,0.0,0.0,0.0,0.0,16.6503906,35.15625,62.0
42,1639773587.4965425,81.45,23.95,0.0,0.0,0.0,0.0,0.0,0.0,13.9648437,36.1328125,61.25
43,1639773587.791211,78.13,24.0,0.0,0.0,0.0,0.0,0.0,0.0,12.9882812,35.546875,60.75
44,1639773588.1030064,91.57,24.03,0.0,0.0,0.0,0.0,0.0,0.0,9.5703125,35.4492187,60.0
45,1639773588.3982317,84.49,24.0,0.0,0.0,0.0,0.0,0.0,0.0,8.59375,34.9609375,59.25
46,1639773588.693097,87.86,24.03,0.0,0.0,0.0,0.0,0.0,0.0,7.6171875,34.375,58.75
47,1639773588.9894383,91.85,24.0,0.0,0.0,0.0,0.0,0.0,0.0,6.3964843,33.984375,58.0
48,1639773589.283876,91.21,24.07,0.0,0.0,0.0,0.0,0.0,0.0,5.9082031,35.15625,57.25
49,1639773589.5937285,89.93,23.92,0.0,0.0,0.0,0.0,0.0,0.0,4.4433593,35.546875,56.75
50,1639773589.892503,91.91,23.98,0.0,0.0,0.0,0.0,0.0,0.0,3.9550781,35.4492187,56.0
51,1639773590.1862686,94.31,24.08,0.0,0.0,0.0,0.0,0.0,0.0,3.7109375,34.5703125,55.25
52,1639773590.4976106,92.19,24.07,0.0,0.0,0.0,0.0,0.0,0.0,3.2226562,34.375,54.75
53,1639773590.7915316,92.86,23.98,0.0,0.0,0.0,0.0,0.0,0.0,2.734375,33.4960937,54.0
54,1639773591.0826056,95.95,24.07,0.0,0.0,0.0,0.0,0.0,0.0,2.4902343,32.7148437,53.25
55,1639773591.391554,93.02,23.99,0.0,0.0,0.0,0.0,0.0,0.0,2.2460937,31.8359375,52.75
56,1639773591.6862676,95.45,23.97,0.0,0.0,0.0,0.0,0.0,0.0,1.7578125,30.7617187,52.0
57,1639773591.9956918,95.33,24.04,0.0,0.0,0.0,0.0,0.0,0.0,1.7578125,29.9804687,51.25
58,1639773592.2904837,95.86,24.05,0.0,0.0,0.0,0.0,0.0,0.0,1.5136718,29.0039062,50.5
59,1639773592.5896592,95.92,24.0,0.0,0.0,0.0,0.0,0.0,0.0,1.2695312,28.125,50.0
60,1639773592.8967183,96.35,24.0,0.0,0.0,0.0,0.0,0.0,0.0,1.0253906,27.1484375,49.25
61,1639773593.1883361,96.39,24.06,0.0,0.0,0.0,0.0,0.0,0.0,1.0253906,26.3671875,48.5
62,1639773593.481455,94.69,23.98,0.0,0.0,0.0,0.0,0.0,0.0,0.78125,25.78125,48.0
63,1639773593.7907262,95.41,23.92,0.0,0.0,0.0,0.0,0.0,0.0,2.0019531,25.2929687,47.25
64,1639773594.088746,97.84,24.03,0.0,0.0,0.0,0.0,0.0,0.0,0.78125,24.9023437,46.5
65,1639773594.3897686,98.38,23.98,0.0,0.0,0.0,0.0,0.0,0.0,0.78125,24.4140625,46.0
66,1639773594.6915486,101.11,24.03,0.0,0.0,0.0,0.0,0.0,0.0,0.78125,24.21875,45.25
67,1639773594.9838796,101.16,24.07,0.0,0.0,0.0,0.0,0.0,0.0,0.5371094,24.0234375,44.5
68,1639773595.291995,100.2,24.02,0.0,0.0,0.0,0.0,0.0,0.0,0.5371094,22.3632812,44.0
69,1639773595.5869713,99.24,24.03,0.0,0.0,0.0,0.0,0.0,0.0,0.5371094,21.1914062,43.25
70,1639773595.8959332,97.97,24.02,0.0,0.0,0.0,0.0,0.0,0.0,0.2929687,25.0976562,42.75
71,1639773596.191812,98.04,24.06,0.0,0.0,0.0,0.0,0.0,0.0,0.2929687,26.953125,42.0
72,1639773596.492291,100.15,24.05,0.0,0.0,0.0,0.0,0.0,0.0,0.2929687,27.2460937,41.5
73,1639773596.7929318,99.98,23.96,0.0,0.0,0.0,0.0,0.0,0.0,0.2929687,27.5390625,40.75
74,1639773597.0828824,98.62,24.07,0.0,0.0,0.0,0.0,0.0,0.0,0.0488281,25.8789062,40.25
75,1639773597.377596,99.85,24.01,0.0,0.0,0.0,0.0,0.0,0.0,0.2929687,24.7070312,39.5
76,1639773597.6890934,99.7,24.03,0.0,0.0,0.0,0.0,0.0,0.0,0.0488281,23.5351562,38.75
77,1639773597.9864233,101.18,24.03,0.0,0.0,0.0,0.0,0.0,0.0,0.0488281,20.0195312,38.25
78,1639773598.2808871,101.14,24.0,0.0,0.0,0.0,0.0,0.0,0.0,0.0488281,17.7734375,37.5
79,1639773598.5930774,101.02,24.07,0.0,0.0,0.0,0.0,0.0,0.0,0.0488281,23.1445312,36.75
80,1639773598.8816476,100.15,24.02,0.0,0.0,0.0,0.0,0.0,0.0,-0.1953125,25.0,36.0
81,1639773599.1911616,100.39,24.0,0.0,0.0,0.0,0.0,0.0,0.0,0.5371094,25.1953125,35.5
82,1639773599.4853685,99.58,24.05,0.0,0.0,0.0,0.0,0.0,0.0,0.0488281,25.2929687,34.75
83,1639773599.7832775,100.62,23.94,0.0,0.0,0.0,0.0,0.0,0.0,0.0488281,24.8046875,34.0
84,1639773600.0918436,100.65,24.03,0.0,0.0,0.0,0.0,0.0,0.0,0.0488281,25.4882812,33.5
85,1639773600.3907588,99.9,23.94,0.0,0.0,0.0,0.0,0.0,0.0,-0.1953125,25.2929687,32.75
86,1639773600.6941948,100.25,24.11,0.0,0.0,0.0,0.0,0.0,0.0,-0.1953125,26.4648437,32.0
87,1639773600.9909074,100.48,24.01,0.0,0.0,0.0,0.0,0.0,0.0,-0.1953125,28.7109375,31.5
88,1639773601.3002815,100.54,24.05,0.0,0.0,0.0,0.0,0.0,0.0,-0.1953125,28.6132812,30.75
89,1639773601.592338,100.29,24.04,0.0,0.0,0.0,0.0,0.0,0.0,-0.4394531,26.5625,30.0
90,1639773601.9029229,101.02,23.98,0.0,0.0,0.0,0.0,0.0,0.0,-0.1953125,25.0976562,29.25
91,1639773602.2144108,101.43,24.01,0.0,0.0,0.0,0.0,0.0,0.0,-0.1953125,24.4140625,28.75
92,1639773602.5096734,100.68,24.02,0.0,0.0,0.0,0.0,0.0,0.0,-0.1953125,24.0234375,28.0
93,1639773602.8040962,101.86,24.0,0.0,0.0,0.0,0.0,0.0,0.0,-0.1953125,24.609375,27.25
94,1639773603.0995677,102.21,23.95,0.0,0.0,0.0,0.0,0.0,0.0,-0.1953125,25.0976562,26.75
95,1639773603.4086068,102.93,23.93,0.0,0.0,0.0,0.0,0.0,0.0,-0.4394531,25.78125,26.0
96,1639773603.7030885,102.73,24.07,0.0,0.0,0.0,0.0,0.0,0.0,-0.1953125,25.78125,25.25
97,1639773604.0137775,101.67,24.0,0.0,0.0,0.0,0.0,0.0,0.0,-0.1953125,25.390625,24.75
98,1639773604.3208566,101.36,23.99,0.0,0.0,0.0,0.0,0.0,0.0,-0.1953125,23.828125,24.0
99,1639773604.6146195,101.36,24.03,0.0,0.0,0.0,0.0,0.0,0.0,-0.4394531,24.609375,23.25
100,1639773604.9179718,101.79,23.95,0.0,0.0,0.0,0.0,0.0,0.0,-0.1953125,23.828125,22.75
101,1639773605.2191682,100.75,23.98,0.0,0.0,0.0,0.0,0.0,0.0,-0.1953125,22.8515625,22.0
102,1639773605.5134156,101.42,24.0,0.0,0.0,0.0,0.0,0.0,0.0,-0.1953125,22.3632812,21.25
103,1639773605.822994,100.88,24.0,0.0,0.0,0.0,0.0,0.0,0.0,-0.1953125,23.7304687,20.5
104,1639773606.1205444,100.74,24.0,0.0,0.0,0.0,0.0,0.0,0.0,-0.1953125,24.9023437,20.0
105,1639773606.4292967,100.12,23.96,0.0,0.0,0.0,0.0,0.0,0.0,-0.1953125,26.3671875,19.25
106,1639773606.7239478,100.02,23.96,0.0,0.0,0.0,0.0,0.0,0.0,-0.1953125,27.1484375,18.5
107,1639773607.024238,99.75,24.01,0.0,0.0,0.0,0.0,0.0,0.0,-0.1953125,31.5429687,18.0
108,1639773607.3312798,99.9,24.04,0.0,0.0,0.0,0.0,0.0,0.0,-0.1953125,18.8476562,17.25
109,1639773607.620306,99.55,24.0,0.0,0.0,0.0,0.0,0.0,0.0,-0.1953125,18.1640625,16.5
110,1639773607.93046,99.81,24.0,0.0,0.0,0.0,0.0,0.0,0.0,-0.1953125,18.6523437,16.0
111,1639773608.225446,100.49,23.95,0.0,0.0,0.0,0.0,0.0,0.0,-0.1953125,19.2382812,15.25
112,1639773608.5375679,100.01,23.98,0.0,0.0,0.0,0.0,0.0,0.0,-0.4394531,19.140625,14.5
113,1639773608.831843,99.58,23.93,0.0,0.0,0.0,0.0,0.0,0.0,-0.4394531,19.53125,13.75
114,1639773609.1415164,99.69,23.97,0.0,0.0,0.0,0.0,0.0,0.0,-0.4394531,21.09375,13.0
115,1639773609.4374254,100.13,23.98,0.0,0.0,0.0,0.0,0.0,0.0,-0.1953125,21.5820312,12.5
116,1639773609.7318492,99.89,23.97,0.0,0.0,0.0,0.0,0.0,0.0,-0.1953125,22.265625,11.75
117,1639773610.0296094,100.42,23.94,0.0,0.0,0.0,0.0,0.0,0.0,-0.1953125,22.4609375,11.25
118,1639773610.3397217,99.62,23.97,0.0,0.0,0.0,0.0,0.0,0.0,-0.1953125,21.484375,10.5
119,1639773610.6354144,99.31,23.96,0.0,0.0,0.0,0.0,0.0,0.0,-0.4394531,20.0195312,9.75
120,1639773610.9648988,99.4,23.99,0.0,0.0,0.0,0.0,0.0,0.0,-0.1953125,19.921875,9.0
121,1639773611.2467906,98.39,23.97,0.0,0.0,0.0,0.0,0.0,0.0,-0.4394531,20.1171875,8.5
122,1639773611.539578,98.32,24.04,0.0,0.0,0.0,0.0,0.0,0.0,-0.1953125,20.6054687,7.75
123,1639773611.8361626,99.04,23.93,0.0,0.0,0.0,0.0,0.0,0.0,-0.1953125,21.09375,7.25
124,1639773612.145863,98.59,23.97,0.0,0.0,0.0,0.0,0.0,0.0,-0.4394531,21.2890625,6.5
125,1639773612.4396265,99.02,23.98,0.0,0.0,0.0,0.0,0.0,0.0,-0.1953125,21.3867187,5.75
126,1639773612.7521334,98.95,24.0,0.0,0.0,0.0,0.0,0.0,0.0,-0.1953125,21.3867187,5.25
127,1639773613.0419073,99.04,23.96,0.0,0.0,0.0,0.0,0.0,0.0,-0.1953125,21.2890625,4.5
128,1639773613.3547618,98.83,23.94,0.0,0.0,0.0,0.0,0.0,0.0,-0.1953125,21.2890625,3.75
129,1639773613.647097,98.86,23.96,0.0,0.0,0.0,0.0,0.0,0.0,-0.1953125,21.5820312,3.25
130,1639773613.94032,98.73,23.96,0.0,0.0,0.0,0.0,0.0,0.0,-0.4394531,21.875,2.5
131,1639773614.239591,98.97,23.95,0.0,0.0,0.0,0.0,0.0,0.0,-0.4394531,24.1210937,2.0
132,1639773614.5508087,98.24,23.96,0.0,0.0,0.0,0.0,0.0,0.0,-0.1953125,29.296875,1.25
133,1639773614.842133,98.18,23.99,0.0,0.0,0.0,0.0,0.0,0.0,0.0488281,29.9804687,0.75
134,1639773615.1589167,98.08,23.94,0.0,0.0,0.0,0.0,0.0,0.0,-0.4394531,23.5351562,0.0
135,1639773615.4484673,98.79,23.89,0.0,0.0,0.0,0.0,0.0,0.0,-0.1953125,23.828125,-0.75
136,1639773615.7574618,98.18,23.98,0.0,0.0,0.0,0.0,0.0,0.0,-0.1953125,23.1445312,-1.25
137,1639773616.0544343,97.79,23.98,0.0,0.0,0.0,0.0,0.0,0.0,-0.4394531,22.7539062,-2.0
138,1639773616.349151,98.09,23.92,0.0,0.0,0.0,0.0,0.0,0.0,-0.4394531,22.65625,-2.75
139,1639773616.659131,97.29,23.92,0.0,0.0,0.0,0.0,0.0,0.0,-0.1953125,22.9492187,-3.25
140,1639773616.9557915,97.83,23.92,0.0,0.0,0.0,0.0,0.0,0.0,-0.4394531,23.1445312,-4.0
141,1639773617.2494073,97.31,23.91,0.0,0.0,0.0,0.0,0.0,0.0,-0.4394531,23.2421875,-4.5
142,1639773617.556765,97.39,23.94,0.0,0.0,0.0,0.0,0.0,0.0,-0.6835937,23.5351562,-5.25
143,1639773617.849503,97.73,23.95,0.0,0.0,0.0,0.0,0.0,0.0,-0.4394531,23.6328125,-6.0
144,1639773618.158405,97.56,23.94,0.0,0.0,0.0,0.0,0.0,0.0,-0.4394531,24.0234375,-6.5
145,1639773618.4527578,97.19,23.89,0.0,0.0,0.0,0.0,0.0,0.0,-0.4394531,24.3164062,-7.25
146,1639773618.7524955,97.37,23.91,0.0,0.0,0.0,0.0,0.0,0.0,-0.1953125,24.5117187,-8.0
147,1639773619.0628786,96.59,23.94,0.0,0.0,0.0,0.0,0.0,0.0,-0.1953125,24.609375,-8.75
148,1639773619.35439,96.32,23.95,0.0,0.0,0.0,0.0,0.0,0.0,-0.1953125,24.609375,-9.25
149,1639773619.6505005,96.11,23.88,0.0,0.0,0.0,0.0,0.0,0.0,-0.4394531,24.5117187,-10.0
150,1639773619.962715,97.0,23.95,0.0,0.0,0.0,0.0,0.0,0.0,-0.4394531,24.4140625,-10.75
151,1639773620.273385,96.98,23.88,0.0,0.0,0.0,0.0,0.0,0.0,-0.4394531,24.21875,-11.5
152,1639773620.5592778,97.09,23.9,0.0,0.0,0.0,0.0,0.0,0.0,-0.4394531,24.0234375,-12.0
153,1639773620.8667045,97.04,23.96,0.0,0.0,0.0,0.0,0.0,0.0,-0.1953125,23.7304687,-12.75
154,1639773621.1597457,97.32,23.92,0.0,0.0,0.0,0.0,0.0,0.0,-0.1953125,23.3398437,-13.25
155,1639773621.4531033,97.76,23.94,0.0,0.0,0.0,0.0,0.0,0.0,-0.4394531,23.046875,-14.0
156,1639773621.7633026,97.48,23.92,0.0,0.0,0.0,0.0,0.0,0.0,-0.1953125,22.8515625,-14.75
157,1639773622.0745544,96.81,23.84,0.0,0.0,0.0,0.0,0.0,0.0,-0.1953125,22.4609375,-15.25
158,1639773622.3674166,98.02,23.92,0.0,0.0,0.0,0.0,0.0,0.0,-0.4394531,22.0703125,-16.0
159,1639773622.6589215,97.18,23.9,0.0,0.0,0.0,0.0,0.0,0.0,-0.4394531,22.1679687,-16.75
160,1639773622.9684136,97.01,23.95,0.0,0.0,0.0,0.0,0.0,0.0,-0.1953125,21.6796875,-17.25
161,1639773623.2649877,97.08,23.93,0.0,0.0,0.0,0.0,0.0,0.0,-0.1953125,21.6796875,-18.0
162,1639773623.572447,96.81,23.9,0.0,0.0,0.0,0.0,0.0,0.0,-0.1953125,20.703125,-18.75
163,1639773623.8686879,96.71,23.95,0.0,0.0,0.0,0.0,0.0,0.0,-0.1953125,24.0234375,-19.5
164,1639773624.1626089,97.22,23.87,0.0,0.0,0.0,0.0,0.0,0.0,-0.4394531,24.7070312,-20.0
165,1639773624.4703841,96.71,23.95,0.0,0.0,0.0,0.0,0.0,0.0,-0.4394531,25.2929687,-20.75
166,1639773624.7681558,96.72,23.89,0.0,0.0,0.0,0.0,0.0,0.0,-0.4394531,25.78125,-21.25
167,1639773625.071149,97.0,23.95,0.0,0.0,0.0,0.0,0.0,0.0,-0.1953125,26.2695312,-22.0
168,1639773625.3662083,320.48,23.91,0.0,0.0,0.0,0.0,0.0,0.0,3.9550781,26.171875,-22.5
169,1639773625.673502,205.23,23.85,0.0,0.0,0.0,0.0,0.0,0.0,0.78125,26.0742187,-21.75
170,1639773625.9681973,215.32,23.88,0.0,0.0,0.0,0.0,0.0,0.0,0.78125,26.2695312,-21.25
171,1639773626.264844,204.69,23.88,0.0,0.0,0.0,0.0,0.0,0.0,0.78125,26.171875,-20.5
172,1639773626.5761306,210.21,23.92,0.0,0.0,0.0,0.0,0.0,0.0,0.78125,25.8789062,-19.75
173,1639773626.8754003,202.34,23.89,0.0,0.0,0.0,0.0,0.0,0.0,0.78125,25.78125,-19.25
174,1639773627.1662118,206.11,23.8,0.0,0.0,0.0,0.0,0.0,0.0,1.0253906,25.1953125,-18.75
175,1639773627.4752538,206.32,23.86,0.0,0.0,0.0,0.0,0.0,0.0,0.78125,24.8046875,-18.0
176,1639773627.7825198,206.76,23.83,0.0,0.0,0.0,0.0,0.0,0.0,0.78125,25.78125,-17.25
177,1639773628.076541,201.18,23.86,0.0,0.0,0.0,0.0,0.0,0.0,0.78125,27.34375,-16.75
178,1639773628.3705552,207.23,23.81,0.0,0.0,0.0,0.0,0.0,0.0,1.0253906,27.0507812,-16.0
179,1639773628.6824298,198.88,23.86,0.0,0.0,0.0,0.0,0.0,0.0,0.78125,23.828125,-15.25
180,1639773628.97452,203.14,23.93,0.0,0.0,0.0,0.0,0.0,0.0,0.78125,25.4882812,-14.75
181,1639773629.2894046,200.1,23.92,0.0,0.0,0.0,0.0,0.0,0.0,0.78125,22.65625,-14.0
182,1639773629.5805905,200.79,23.82,0.0,0.0,0.0,0.0,0.0,0.0,0.78125,23.6328125,-13.5
183,1639773629.8770735,202.15,23.84,0.0,0.0,0.0,0.0,0.0,0.0,0.78125,23.828125,-12.75
184,1639773630.174282,202.71,23.79,0.0,0.0,0.0,0.0,0.0,0.0,0.78125,22.65625,-12.0
185,1639773630.4853237,203.83,23.88,0.0,0.0,0.0,0.0,0.0,0.0,0.78125,21.5820312,-11.5
186,1639773630.7796912,196.24,23.9,0.0,0.0,0.0,0.0,0.0,0.0,1.0253906,24.5117187,-10.75
187,1639773631.0747116,193.66,23.84,0.0,0.0,0.0,0.0,0.0,0.0,0.78125,22.7539062,-10.0
188,1639773631.3847325,196.98,23.85,0.0,0.0,0.0,0.0,0.0,0.0,0.78125,15.7226562,-9.5
189,1639773631.6787608,196.3,23.82,0.0,0.0,0.0,0.0,0.0,0.0,0.78125,15.625,-8.75
190,1639773631.9878678,195.91,23.8,0.0,0.0,0.0,0.0,0.0,0.0,0.78125,16.6992187,-8.0
191,1639773632.285112,193.99,23.79,0.0,0.0,0.0,0.0,0.0,0.0,0.78125,17.6757812,-7.5
192,1639773632.5827968,197.68,23.8,0.0,0.0,0.0,0.0,0.0,0.0,0.78125,18.6523437,-6.75
193,1639773632.8878026,187.32,23.84,0.0,0.0,0.0,0.0,0.0,0.0,0.78125,26.4648437,-6.0
194,1639773633.183983,191.12,23.78,0.0,0.0,0.0,0.0,0.0,0.0,0.78125,28.515625,-5.5
195,1639773633.4805691,191.64,23.86,0.0,0.0,0.0,0.0,0.0,0.0,0.78125,24.0234375,-4.75
196,1639773633.788996,188.41,23.79,0.0,0.0,0.0,0.0,0.0,0.0,0.78125,23.1445312,-4.0
197,1639773634.0840998,194.45,23.81,0.0,0.0,0.0,0.0,0.0,0.0,0.78125,23.4375,-3.5
198,1639773634.3928514,194.04,23.84,0.0,0.0,0.0,0.0,0.0,0.0,0.78125,24.0234375,-2.75
199,1639773634.6852484,189.88,23.8,0.0,0.0,0.0,0.0,0.0,0.0,0.78125,24.21875,-2.25
200,1639773634.9810035,187.11,23.83,0.0,0.0,0.0,0.0,0.0,0.0,0.78125,24.3164062,-1.5
201,1639773635.2912834,188.53,23.79,0.0,0.0,0.0,0.0,0.0,0.0,0.78125,25.0,-0.75
202,1639773635.5859919,189.66,23.8,0.0,0.0,0.0,0.0,0.0,0.0,0.5371094,20.8007812,-0.25
203,1639773635.8994915,186.4,23.8,0.0,0.0,0.0,0.0,0.0,0.0,0.78125,25.2929687,0.5
204,1639773636.1939578,187.47,23.82,0.0,0.0,0.0,0.0,0.0,0.0,0.78125,23.2421875,1.25
205,1639773636.4892707,190.45,23.8,0.0,0.0,0.0,0.0,0.0,0.0,0.78125,20.9960937,2.0
206,1639773636.7983088,185.64,23.81,0.0,0.0,0.0,0.0,0.0,0.0,0.78125,21.09375,2.5
207,1639773637.0914147,185.66,23.78,0.0,0.0,0.0,0.0,0.0,0.0,0.78125,21.6796875,3.25
208,1639773637.4012115,186.42,23.7,0.0,0.0,0.0,0.0,0.0,0.0,0.5371094,22.0703125,3.75
209,1639773637.6954556,186.76,23.75,0.0,0.0,0.0,0.0,0.0,0.0,0.78125,21.484375,4.5
210,1639773637.9909906,184.92,23.78,0.0,0.0,0.0,0.0,0.0,0.0,0.2929687,20.1171875,5.0
211,1639773638.3018637,184.77,23.73,0.0,0.0,0.0,0.0,0.0,0.0,0.5371094,13.3789062,5.75
212,1639773638.596535,183.31,23.72,0.0,0.0,0.0,0.0,0.0,0.0,0.5371094,10.3515625,6.5
213,1639773638.9136348,184.79,23.84,0.0,0.0,0.0,0.0,0.0,0.0,0.78125,13.3789062,7.0
214,1639773639.199269,182.24,23.77,0.0,0.0,0.0,0.0,0.0,0.0,0.78125,14.9414062,7.75
215,1639773639.49551,183.48,23.8,0.0,0.0,0.0,0.0,0.0,0.0,0.78125,15.234375,8.5
216,1639773639.8029323,182.82,23.79,0.0,0.0,0.0,0.0,0.0,0.0,0.5371094,16.796875,9.0
217,1639773640.09666,183.36,23.82,0.0,0.0,0.0,0.0,0.0,0.0,0.78125,18.1640625,9.75
218,1639773640.422199,185.36,23.81,0.0,0.0,0.0,0.0,0.0,0.0,0.78125,19.2382812,10.5
219,1639773640.7064376,182.09,23.83,0.0,0.0,0.0,0.0,0.0,0.0,0.78125,20.2148437,11.0
220,1639773640.9965954,180.46,23.77,0.0,0.0,0.0,0.0,0.0,0.0,0.5371094,21.09375,11.5
221,1639773641.3068705,181.54,23.77,0.0,0.0,0.0,0.0,0.0,0.0,0.5371094,21.9726562,12.25
222,1639773641.6021159,179.98,23.72,0.0,0.0,0.0,0.0,0.0,0.0,0.5371094,22.9492187,13.0
223,1639773641.9091017,181.88,23.78,0.0,0.0,0.0,0.0,0.0,0.0,0.5371094,23.5351562,13.5
224,1639773642.2031796,181.92,23.67,0.0,0.0,0.0,0.0,0.0,0.0,0.5371094,24.1210937,14.25
225,1639773642.512747,179.22,23.77,0.0,0.0,0.0,0.0,0.0,0.0,0.5371094,24.3164062,15.0
226,1639773642.8081079,179.6,23.75,0.0,0.0,0.0,0.0,0.0,0.0,0.5371094,24.4140625,15.5
227,1639773643.1034448,180.39,23.73,0.0,0.0,0.0,0.0,0.0,0.0,0.78125,24.4140625,16.25
228,1639773643.4008746,181.1,23.68,0.0,0.0,0.0,0.0,0.0,0.0,0.5371094,24.5117187,16.75
229,1639773643.7121663,178.84,23.72,0.0,0.0,0.0,0.0,0.0,0.0,0.5371094,25.6835937,17.5
230,1639773644.0053096,177.77,23.7,0.0,0.0,0.0,0.0,0.0,0.0,0.78125,32.3242187,18.25
231,1639773644.3148673,177.86,23.71,0.0,0.0,0.0,0.0,0.0,0.0,0.5371094,35.2539062,19.0
232,1639773644.609139,179.69,23.71,0.0,0.0,0.0,0.0,0.0,0.0,0.5371094,36.1328125,19.5
233,1639773644.9189467,178.24,23.76,0.0,0.0,0.0,0.0,0.0,0.0,0.5371094,34.8632812,20.25
