,Time,Elapsed Time,Mass Flow,Target Mass Flow,MFM Temperature,Inlet Temperature,Midpoint Temperature,Outlet Temperature,Heater Temperature,Supply Pressure,Inlet Pressure,Midpoint Pressure,Outlet Pressure,Valve Position,Heater Power,Heater Current
0,1644534059.5325325,0.0,154.66,0.0,24.38,23.25,30.0,56.25,228.75,17.1386718,16.9921875,10.546875,0.0976563,0.0,300.0,0.61
1,1644534059.6995432,0.1760120391845703,154.77,0.0,24.35,22.75,29.5,56.5,228.5,17.1386718,16.6992187,10.9375,0.0,0.0,300.0,-4.92
2,1644534059.8715558,0.2840230464935303,154.16,0.0,24.35,23.25,30.75,56.0,228.25,17.1386718,16.8945312,10.7421875,0.0,0.0,300.0,-0.19
3,1644534060.0555701,0.5060358047485352,154.24,0.0,24.36,23.0,30.5,56.5,228.75,16.8945312,17.0898437,10.546875,0.0,0.0,300.0,5.0
4,1644534060.2055838,0.6180472373962402,153.76,0.0,24.43,23.25,30.75,56.25,228.75,17.1386718,16.9921875,10.8398437,0.0,0.0,300.0,0.16
5,1644534060.377099,0.8375668525695801,153.69,0.0,24.43,23.0,31.0,56.75,228.5,17.1386718,16.6015625,11.0351562,0.0,0.0,300.0,-5.03
6,1644534060.5601141,0.9485733509063721,153.64,0.0,24.37,23.25,29.5,57.0,228.25,16.8945312,16.9921875,11.0351562,0.0,0.0,300.0,0.03
7,1644534060.7231226,1.169593334197998,154.67,0.0,24.4,23.0,30.0,56.0,228.25,17.1386718,16.796875,11.1328125,0.0976563,0.0,300.0,5.03
8,1644534060.8961356,1.2776010036468506,153.81,0.0,24.41,23.0,29.75,55.25,228.0,17.1386718,16.796875,10.9375,0.0976563,0.0,300.0,1.57
9,1644534061.0769866,1.4986138343811035,153.4,0.0,24.37,23.25,29.75,56.75,228.25,17.1386718,16.6992187,11.2304687,0.0,0.0,300.0,-4.52
10,1644534061.2419982,1.7184669971466064,154.08,0.0,24.42,23.25,31.0,56.5,228.25,17.1386718,16.6992187,10.9375,0.0,0.0,300.0,-1.36
11,1644534061.4020119,1.8304760456085205,154.08,0.0,24.35,23.25,31.0,56.0,228.25,16.8945312,16.796875,10.9375,0.0976563,0.0,300.0,5.03
12,1644534061.581027,2.0524935722351074,153.55,0.0,24.44,23.25,29.25,55.75,228.75,17.1386718,16.8945312,10.9375,0.0,0.0,300.0,1.2
13,1644534061.749038,2.161501169204712,153.95,0.0,24.36,23.0,30.75,56.5,228.25,17.1386718,16.8945312,11.0351562,0.0976563,0.0,300.0,-4.79
14,1644534061.9230492,2.3835201263427734,153.84,0.0,24.46,23.5,29.75,56.5,228.5,16.8945312,16.8945312,10.546875,0.0976563,0.0,300.0,-1.12
15,1644534062.1030626,2.495527505874634,153.17,0.0,24.43,23.0,30.75,56.5,228.5,17.1386718,16.8945312,11.0351562,0.0,0.0,300.0,5.08
16,1644534062.2700772,2.7145445346832275,153.28,0.0,24.36,23.0,29.5,56.5,228.25,16.8945312,16.8945312,10.8398437,0.0,0.0,300.0,0.9
17,1644534062.4280903,2.826552629470825,155.01,0.0,24.35,23.0,30.75,56.0,228.5,17.1386718,16.9921875,10.8398437,0.0,0.0,300.0,-4.79
18,1644534062.6101172,3.0485689640045166,154.22,0.0,24.41,23.0,31.25,56.5,228.75,17.1386718,16.5039062,10.6445312,0.0,0.0,300.0,-0.77
19,1644534062.7762258,3.1586201190948486,153.9,0.0,24.38,23.5,30.5,55.75,228.0,16.8945312,17.0898437,10.8398437,0.0,0.0,300.0,5.11
20,1644534062.9530764,3.3761608600616455,154.91,0.0,24.37,23.25,30.0,56.25,228.5,16.8945312,16.9921875,10.7421875,0.0976563,0.0,300.0,0.19
21,1644534063.1273546,3.5948221683502197,154.33,0.0,24.36,22.75,30.5,56.25,228.75,16.8945312,16.8945312,10.4492187,0.0,0.0,300.0,0.03
22,1644534063.2900577,3.704289197921753,153.62,0.0,24.37,23.25,29.75,55.5,228.5,16.8945312,16.8945312,10.8398437,0.0,0.0,300.0,0.08
23,1644534063.4532237,3.9236903190612793,153.68,0.0,24.4,23.0,29.5,56.5,228.5,16.8945312,16.796875,10.8398437,0.0,0.0,300.0,0.13
24,1644534063.6182153,4.032281160354614,154.04,0.0,24.37,23.5,29.25,56.5,228.5,17.1386718,16.6992187,10.8398437,0.0,0.0,300.0,0.05
25,1644534063.8095224,4.2479729652404785,153.79,0.0,24.42,23.0,29.25,56.25,228.5,17.1386718,17.0898437,10.7421875,0.0976563,0.0,300.0,0.03
26,1644534063.9725714,4.355831861495972,153.82,0.0,24.37,23.5,30.75,56.75,228.5,17.1386718,16.9921875,10.7421875,0.0,0.0,300.0,0.03
27,1644534064.1417801,4.57289981842041,152.99,0.0,24.29,23.0,30.0,56.5,228.0,17.1386718,16.6992187,10.6445312,0.0,0.0,300.0,0.05
28,1644534064.3243968,4.785862922668457,154.56,0.0,24.37,23.25,30.0,56.5,228.75,17.1386718,16.796875,10.4492187,0.0,0.0,300.0,-0.13
29,1644534064.4803588,4.895449161529541,153.84,0.0,24.4,23.0,29.25,56.25,228.5,17.1386718,16.8945312,10.9375,0.1953125,0.0,300.0,-0.03
30,1644534064.649126,5.1095874309539795,153.79,0.0,24.38,23.25,30.0,56.25,228.25,17.1386718,16.796875,10.546875,0.0,0.0,300.0,0.08
31,1644534064.8205183,5.216950178146362,153.36,0.0,24.39,23.25,29.5,56.5,228.0,17.1386718,16.796875,10.7421875,0.0,0.0,300.0,0.08
32,1644534064.9883194,5.434916973114014,153.66,0.0,24.42,22.75,29.0,56.25,228.25,17.1386718,16.6992187,10.8398437,0.0,0.0,300.0,0.0
33,1644534065.1610675,5.542823076248169,153.14,0.0,24.37,23.5,29.5,56.25,228.75,17.1386718,16.6992187,10.9375,0.0,0.0,300.0,-0.03
34,1644534065.3411176,5.760555267333984,152.72,0.0,24.35,22.75,29.5,56.75,228.25,17.1386718,17.0898437,11.0351562,0.0976563,0.0,300.0,0.03
35,1644534065.5160475,5.976509094238281,153.56,0.0,24.43,23.0,31.0,56.0,228.5,16.8945312,16.9921875,10.7421875,0.0,0.0,300.0,-0.08
36,1644534065.6744747,6.083917617797852,153.41,0.0,24.41,24.5,29.25,55.75,228.25,17.1386718,16.9921875,10.8398437,0.0,0.0,300.0,0.0
37,1644534065.8426762,6.297799587249756,153.41,0.0,24.38,23.5,30.25,56.75,228.5,17.1386718,16.6992187,10.8398437,0.0,0.0,300.0,0.11
38,1644534066.0084436,6.406008958816528,154.49,0.0,24.39,23.0,29.25,56.75,228.75,17.1386718,16.796875,10.8398437,0.0976563,0.0,300.0,-5.03
39,1644534066.1939726,6.624863862991333,153.84,0.0,24.44,23.0,30.25,56.25,229.0,17.1386718,16.8945312,10.7421875,0.0,0.0,300.0,-0.03
40,1644534066.3695023,6.841970682144165,153.14,0.0,24.43,23.25,29.0,55.5,228.5,17.1386718,16.6992187,11.1328125,0.0,0.0,300.0,5.0
41,1644534066.5201607,6.950463771820068,153.57,0.0,24.33,23.25,30.25,55.5,228.5,17.1386718,16.9921875,10.8398437,0.0,0.0,300.0,0.05
42,1644534066.6907737,7.167242527008057,152.74,0.0,24.33,22.75,29.5,56.5,228.5,17.3828125,16.796875,10.6445312,0.0,0.0,300.0,-5.03
43,1644534066.8791,7.275950908660889,152.62,0.0,24.36,23.25,30.25,56.25,228.5,17.1386718,16.796875,11.1328125,0.0,0.0,300.0,-0.03
44,1644534067.04808,7.492544651031494,152.74,0.0,24.41,23.0,29.75,56.5,228.5,17.1386718,16.796875,10.8398437,0.0,0.0,300.0,4.97
45,1644534067.2050996,7.602553367614746,152.55,0.0,24.37,23.0,29.5,55.5,228.75,17.1386718,16.6015625,10.9375,0.0,0.0,300.0,-0.11
46,1644534067.380444,7.82189416885376,153.76,0.0,24.35,23.25,29.75,56.5,228.25,17.1386718,16.796875,10.9375,0.0,0.0,300.0,-4.81
47,1644534067.5501204,7.9315571784973145,153.7,0.0,24.4,23.0,30.5,56.25,228.25,17.1386718,16.9921875,10.3515625,0.0,0.0,300.0,2.63
48,1644534067.7200608,8.147128105163574,153.88,0.0,24.35,23.5,30.25,56.25,228.25,17.1386718,16.796875,10.7421875,0.0,0.0,300.0,4.84
49,1644534067.8940873,8.364555358886719,153.15,0.0,24.39,22.75,29.5,56.25,228.75,17.1386718,16.8945312,10.9375,0.0976563,0.0,300.0,-0.27
50,1644534068.0626454,8.476566791534424,152.33,0.0,24.43,23.0,29.0,56.0,228.0,17.1386718,16.6992187,10.7421875,0.0,0.0,300.0,-4.87
51,1644534068.2322655,8.692732572555542,155.33,0.0,24.44,23.0,30.5,56.75,228.0,17.1386718,16.6015625,10.6445312,0.0,0.0,300.0,2.87
52,1644534068.4191005,8.801555633544922,153.98,0.0,24.38,23.0,29.0,56.5,228.75,16.8945312,16.6992187,10.8398437,0.0,0.0,300.0,5.0
53,1644534068.5731115,9.018555641174316,153.76,0.0,24.37,23.0,30.0,56.5,228.75,17.1386718,16.9921875,10.3515625,0.1953125,0.0,300.0,-0.98
54,1644534068.7564077,9.232876539230347,153.91,0.0,24.31,23.75,30.75,57.0,228.25,17.1386718,17.0898437,11.0351562,0.0,0.0,300.0,-4.81
55,1644534068.9176676,9.341228723526001,153.92,0.0,24.42,23.0,30.0,56.25,228.75,17.1386718,16.9921875,10.8398437,0.0,0.0,300.0,0.0
56,1644534069.094995,9.556464195251465,153.49,0.0,24.4,23.0,31.25,56.75,228.0,17.1386718,16.796875,10.9375,0.0,0.0,300.0,0.05
57,1644534069.272955,9.664923667907715,154.28,0.0,24.31,23.0,30.75,56.75,229.0,17.1386718,16.8945312,10.7421875,0.0,0.0,300.0,0.0
58,1644534069.428584,9.883881092071533,152.86,0.0,24.41,22.75,31.0,56.5,229.25,17.1386718,16.796875,10.7421875,0.0,0.0,300.0,0.03
59,1644534069.6062238,9.991102695465088,152.49,0.0,24.45,22.75,30.0,56.25,229.0,17.1386718,16.8945312,10.7421875,0.0,0.0,300.0,0.0
60,1644534069.7757928,10.204598188400269,153.69,0.0,24.37,22.75,29.5,57.0,228.75,17.1386718,16.796875,10.8398437,0.0,0.0,300.0,0.03
61,1644534069.9627998,10.424267530441284,154.09,0.0,24.36,23.0,29.75,56.5,229.0,16.8945312,16.6015625,10.9375,0.1953125,0.0,300.0,-0.03
62,1644534070.1192229,10.534877061843872,154.22,0.0,24.41,23.0,31.5,55.75,228.75,17.1386718,16.796875,10.546875,0.0,0.0,300.0,0.03
63,1644534070.2755916,10.751061201095581,153.56,0.0,24.41,23.0,32.25,56.0,228.75,17.1386718,16.796875,10.6445312,0.0,0.0,300.0,0.03
64,1644534070.482073,10.859487295150757,153.61,0.0,24.37,22.75,30.5,56.0,228.25,17.1386718,16.796875,10.8398437,0.1953125,0.0,300.0,0.03
65,1644534070.6301978,11.07681679725647,153.94,0.0,24.42,22.75,32.25,56.5,228.75,17.1386718,16.9921875,10.7421875,0.0,0.0,300.0,0.05
66,1644534070.8006012,11.183109521865845,153.29,0.0,24.43,22.75,32.0,56.5,228.5,17.1386718,16.796875,10.9375,0.1953125,0.0,300.0,0.11
67,1644534070.9696581,11.399906635284424,153.31,0.0,24.42,23.5,30.75,56.25,228.75,17.1386718,16.9921875,11.0351562,0.0,0.0,300.0,0.19
68,1644534071.1450806,11.615549087524414,153.35,0.0,24.36,22.75,32.25,56.25,228.5,17.1386718,16.6992187,10.8398437,0.0,0.0,300.0,0.03
69,1644534071.315714,11.725613832473755,153.28,0.0,24.39,23.0,30.5,56.25,229.25,17.1386718,16.6992187,10.9375,0.0,0.0,300.0,0.05
70,1644534071.48133,11.94178581237793,152.96,0.0,24.37,23.25,29.25,56.5,229.25,17.1386718,16.796875,10.9375,0.0,0.0,300.0,-0.08
71,1644534071.6561344,12.050464868545532,153.73,0.0,24.35,22.75,30.75,56.25,228.5,17.1386718,16.9921875,10.9375,0.0976563,0.0,300.0,0.03
72,1644534071.83797,12.268962621688843,152.53,0.0,24.35,23.0,30.5,55.75,228.75,17.1386718,16.796875,10.9375,0.0976563,0.0,300.0,0.03
73,1644534071.9797592,12.37667989730835,153.87,0.0,24.39,23.75,29.0,56.5,229.0,17.3828125,16.8945312,10.8398437,0.0976563,0.0,300.0,5.0
74,1644534072.1499693,12.59442925453186,153.21,0.0,24.38,23.5,29.25,56.0,228.5,17.1386718,17.0898437,10.9375,0.0,0.0,300.0,1.84
75,1644534072.3390229,12.811490535736084,154.41,0.0,24.37,23.0,31.0,56.0,229.25,17.1386718,16.796875,10.8398437,0.0976563,0.0,300.0,-4.31
76,1644534072.5204031,12.92078447341919,154.68,0.0,24.38,22.75,32.0,56.25,228.75,17.1386718,16.6992187,10.9375,0.0,0.0,300.0,-1.7
77,1644534072.6760838,13.137121200561523,153.78,0.0,24.42,22.75,30.0,56.5,228.75,17.1386718,17.1875,10.9375,0.0976563,0.0,300.0,5.13
78,1644534072.8540826,13.244460582733154,153.78,0.0,24.4,23.25,30.75,56.0,229.25,17.1386718,16.8945312,10.8398437,0.1953125,0.0,300.0,1.52
79,1644534073.0182714,13.463728666305542,154.56,0.0,24.38,23.0,31.25,56.25,228.5,17.3828125,16.6992187,11.1328125,0.0,0.0,300.0,-4.5
80,1644534073.2044137,13.680882453918457,152.39,0.0,24.42,22.75,30.75,56.25,229.0,17.1386718,16.9921875,10.9375,0.0,0.0,300.0,-1.41
81,1644534073.3729773,13.78700566291809,154.86,0.0,24.42,23.0,29.5,55.75,228.5,17.1386718,16.796875,10.8398437,0.0,0.0,300.0,5.19
82,1644534073.5264606,14.002929449081421,154.87,0.0,24.46,22.75,29.5,55.75,229.0,16.8945312,16.6992187,11.0351562,0.0,0.0,300.0,1.28
83,1644534073.6958284,14.111437559127808,153.32,0.0,24.38,22.75,30.75,55.75,229.25,17.1386718,16.8945312,10.9375,0.0,0.0,300.0,-4.79
84,1644534073.876057,14.327523946762085,154.44,0.0,24.38,23.0,32.25,56.75,228.75,17.1386718,16.8945312,10.8398437,0.0976563,0.0,300.0,-1.12
85,1644534074.0384517,14.43583869934082,153.71,0.0,24.36,23.0,30.5,56.5,228.75,17.1386718,16.6992187,11.0351562,0.0,0.0,300.0,5.27
86,1644534074.2083704,14.654853105545044,152.13,0.0,24.48,23.0,32.5,56.0,228.5,17.1386718,16.6992187,10.7421875,0.0,0.0,300.0,1.06
87,1644534074.3859227,14.763178825378418,153.41,0.0,24.36,22.75,29.5,56.25,228.25,17.1386718,16.8945312,10.9375,0.0,0.0,300.0,-4.76
88,1644534074.5531278,14.980579614639282,153.38,0.0,24.41,22.75,30.25,56.0,228.75,17.1386718,16.796875,10.8398437,0.0,0.0,300.0,-0.93
89,1644534074.726072,15.19654107093811,153.75,0.0,24.44,22.75,30.25,56.5,228.5,17.1386718,16.9921875,10.7421875,0.0,0.0,300.0,5.05
90,1644534074.8963826,15.305469989776611,152.76,0.0,24.36,23.0,30.25,55.75,229.5,17.1386718,16.9921875,11.0351562,0.0,0.0,300.0,0.77
91,1644534075.0618074,15.523368835449219,153.45,0.0,24.48,23.75,31.75,55.75,228.5,16.8945312,16.8945312,10.546875,0.0976563,0.0,300.0,0.05
92,1644534075.2490544,15.631484031677246,153.54,0.0,24.38,23.25,29.25,56.0,228.75,17.1386718,16.8945312,10.8398437,0.0,0.0,300.0,-0.05
93,1644534075.413919,15.849563598632812,153.31,0.0,24.41,23.0,29.25,56.5,229.0,17.1386718,16.9921875,10.6445312,0.0976563,0.0,300.0,0.11
94,1644534075.5760224,15.959416389465332,153.29,0.0,24.42,23.0,31.5,55.75,228.75,16.8945312,16.8945312,10.9375,0.0976563,0.0,300.0,0.11
95,1644534075.748705,16.177154541015625,152.9,0.0,24.37,23.0,30.5,56.75,229.25,17.1386718,16.8945312,10.7421875,0.1953125,0.0,300.0,0.03
96,1644534075.938557,16.396021127700806,153.36,0.0,24.35,23.0,29.25,56.5,228.25,17.1386718,16.796875,10.9375,0.0,0.0,300.0,0.08
97,1644534076.0963788,16.50378394126892,153.24,0.0,24.4,23.25,29.5,56.25,228.25,16.8945312,16.8945312,10.8398437,0.0,0.0,300.0,0.0
98,1644534076.2454922,16.72196102142334,153.79,0.0,24.35,23.5,32.0,56.75,228.75,16.8945312,16.8945312,11.0351562,0.0,0.0,300.0,0.05
99,1644534076.4316316,16.830066919326782,154.13,0.0,24.39,22.75,31.25,55.75,228.75,17.1386718,16.9921875,11.1328125,0.0,0.0,300.0,-0.03
100,1644534076.6105359,17.048625469207764,155.22,0.0,24.41,23.25,30.25,56.25,228.25,17.1386718,16.8945312,10.9375,0.0,0.0,300.0,0.03
101,1644534076.7719197,17.15700340270996,154.02,0.0,24.41,22.75,30.0,55.75,228.75,17.1386718,16.8945312,10.9375,0.0,0.0,300.0,-0.03
102,1644534076.941677,17.37319540977478,153.75,0.0,24.43,22.75,29.75,56.25,229.0,17.1386718,16.796875,11.0351562,0.0,0.0,300.0,0.03
103,1644534077.1167922,17.589261054992676,153.74,0.0,24.35,23.0,31.0,55.75,229.0,17.1386718,16.6992187,10.8398437,0.0,0.0,300.0,0.05
104,1644534077.299381,17.696815729141235,153.86,0.0,24.37,23.0,29.25,56.25,228.25,17.1386718,17.1875,10.9375,0.0,0.0,300.0,0.11
105,1644534077.4547334,17.91582417488098,153.04,0.0,24.31,23.0,30.0,55.75,229.0,17.1386718,16.9921875,10.7421875,0.0,0.0,300.0,0.13
106,1644534077.6101882,18.025216579437256,153.42,0.0,24.42,22.75,29.75,56.5,229.25,16.8945312,16.8945312,10.7421875,0.1953125,0.0,300.0,0.05
107,1644534077.7896285,18.24609613418579,153.85,0.0,24.43,22.75,29.0,55.75,229.0,17.1386718,16.6992187,10.9375,0.0,0.0,300.0,0.0
108,1644534077.9674156,18.349801540374756,155.37,0.0,24.38,23.0,29.25,55.75,229.25,17.1386718,16.6992187,10.7421875,0.0,0.0,300.0,0.03
109,1644534078.1213431,18.56832718849182,152.56,0.0,24.38,22.75,29.5,56.5,228.0,17.1386718,16.6992187,10.7421875,0.0,0.0,300.0,-3.62
110,1644534078.3173335,18.7848002910614,153.26,0.0,24.45,23.0,29.25,56.75,228.5,17.1386718,16.796875,10.7421875,0.0976563,0.0,300.0,4.47
111,1644534078.47868,18.89184260368347,154.11,0.0,24.42,23.0,30.5,56.75,228.5,17.1386718,16.8945312,10.546875,0.0976563,0.0,300.0,3.64
112,1644534078.633469,19.10993790626526,154.05,0.0,24.41,23.25,29.25,56.5,228.5,17.1386718,16.8945312,10.7421875,0.0,0.0,300.0,-3.3
113,1644534078.805961,19.22048568725586,154.06,0.0,24.41,23.25,29.75,56.5,228.5,17.1386718,16.8945312,10.6445312,0.0,0.0,300.0,-3.35
114,1644534078.9833653,19.44065523147583,153.26,0.0,24.41,23.0,29.5,56.5,228.5,16.8945312,16.6015625,10.9375,0.1953125,0.0,300.0,4.71
115,1644534079.1660182,19.548015356063843,152.55,0.0,24.33,23.0,29.5,55.75,228.5,16.8945312,16.796875,10.8398437,0.0,0.0,300.0,3.22
116,1644534079.3209462,19.76641321182251,153.8,0.0,24.35,23.0,29.5,56.25,228.75,17.1386718,16.796875,10.9375,0.0,0.0,300.0,-3.56
117,1644534079.4976559,19.87843894958496,154.82,0.0,24.4,23.5,29.5,56.75,228.25,17.1386718,16.796875,10.6445312,0.0,0.0,300.0,-2.82
118,1644534079.6623535,20.092642545700073,153.61,0.0,24.28,23.25,29.5,56.25,228.25,17.1386718,16.9921875,11.0351562,0.0976563,0.0,300.0,4.71
119,1644534079.832589,20.30905771255493,153.67,0.0,24.35,23.25,30.0,56.5,228.5,17.1386718,16.6992187,10.9375,0.0976563,0.0,300.0,2.74
120,1644534080.0219066,20.41538143157959,153.7,0.0,24.31,23.0,29.75,56.25,229.0,17.1386718,16.796875,10.8398437,0.0,0.0,300.0,-3.94
121,1644534080.187705,20.633464336395264,154.11,0.0,24.42,23.25,29.5,56.75,228.25,16.8945312,16.8945312,11.0351562,0.0,0.0,300.0,-2.53
122,1644534080.3583121,20.741575479507446,153.69,0.0,24.36,23.25,29.0,56.75,228.5,17.1386718,16.9921875,10.546875,0.0,0.0,300.0,4.84
123,1644534080.5131202,20.958575963974,154.37,0.0,24.33,23.5,29.25,56.75,228.75,17.1386718,16.8945312,10.9375,0.0,0.0,300.0,2.45
124,1644534080.7057986,21.173267602920532,152.38,0.0,24.32,23.25,29.75,56.25,228.5,17.1386718,16.6992187,10.8398437,0.0,0.0,300.0,-4.04
125,1644534080.8721764,21.28061008453369,154.55,0.0,24.35,23.0,29.25,55.75,228.5,17.1386718,16.6992187,10.8398437,0.0,0.0,300.0,-2.18
126,1644534081.0385349,21.4996976852417,154.32,0.0,24.41,23.0,29.25,55.75,229.0,17.1386718,16.796875,11.0351562,0.0,0.0,300.0,5.0
127,1644534081.2173073,21.608171701431274,153.74,0.0,24.4,23.0,29.0,56.25,228.75,17.1386718,16.796875,10.6445312,0.0,0.0,300.0,1.92
128,1644534081.3811429,21.82560110092163,154.43,0.0,24.36,23.25,29.5,56.75,228.75,17.1386718,16.9921875,10.7421875,0.0,0.0,300.0,-4.23
129,1644534081.5560856,21.932671785354614,153.49,0.0,24.41,23.0,29.5,56.0,228.5,17.1386718,16.6015625,10.7421875,0.0976563,0.0,300.0,-1.81
130,1644534081.729012,22.15043878555298,152.51,0.0,24.4,23.25,29.5,56.75,228.25,17.1386718,16.8945312,10.7421875,0.0,0.0,300.0,5.11
131,1644534081.8926349,22.36910367012024,153.07,0.0,24.38,23.25,29.0,56.0,228.5,16.8945312,16.6015625,10.7421875,0.0,0.0,300.0,1.7
132,1644534082.0772529,22.47569251060486,152.93,0.0,24.38,22.75,29.0,55.75,228.0,17.1386718,16.8945312,10.8398437,0.0,0.0,300.0,-4.23
133,1644534082.250148,22.693600177764893,151.67,0.0,24.4,23.25,29.0,56.75,228.5,17.1386718,16.9921875,10.9375,0.0,0.0,300.0,-1.41
134,1644534082.402417,22.802792072296143,152.38,0.0,24.35,23.0,29.0,56.5,228.5,17.1386718,16.796875,10.7421875,0.0,0.0,300.0,5.13
135,1644534082.5698931,23.016108751296997,152.86,0.0,24.38,22.75,29.5,56.5,228.75,17.1386718,16.8945312,10.7421875,0.0,0.0,300.0,1.33
136,1644534082.7662916,23.233759880065918,156.04,0.0,24.37,23.0,29.25,56.0,228.5,16.8945312,16.8945312,10.7421875,0.0,0.0,300.0,-4.63
137,1644534082.9169579,23.34192681312561,153.52,0.0,24.33,23.25,28.75,56.0,228.75,17.1386718,16.6992187,10.4492187,0.0,0.0,300.0,-1.14
138,1644534083.0836864,23.560155153274536,154.25,0.0,24.38,22.75,28.75,56.25,228.0,17.1386718,16.6992187,10.7421875,0.0,0.0,300.0,5.21
139,1644534083.2564228,23.671457052230835,152.61,0.0,24.33,23.0,29.5,56.75,228.5,17.1386718,16.6992187,10.8398437,0.0,0.0,300.0,1.12
140,1644534083.4349747,23.88644313812256,155.08,0.0,24.43,23.0,29.25,55.75,228.25,16.8945312,16.9921875,10.9375,0.0,0.0,300.0,-4.71
141,1644534083.597553,23.99502682685852,153.16,0.0,24.4,23.25,29.25,56.75,228.0,17.1386718,16.8945312,10.7421875,0.0,0.0,300.0,-0.85
142,1644534083.7678773,24.212326049804688,154.2,0.0,24.41,23.25,29.25,56.5,228.5,17.1386718,16.9921875,10.9375,0.0976563,0.0,300.0,5.13
143,1644534083.9469795,24.32770299911499,153.42,0.0,24.37,22.75,29.0,56.25,228.25,17.1386718,16.796875,11.0351562,0.0,0.0,300.0,0.88
144,1644534084.1110456,24.54119324684143,153.95,0.0,24.38,23.0,29.5,56.75,228.5,17.1386718,16.796875,10.6445312,0.1953125,0.0,300.0,0.05
145,1644534084.2853756,24.755842924118042,153.59,0.0,24.38,23.5,29.25,56.75,228.75,17.1386718,17.1875,11.0351562,0.0,0.0,300.0,0.05
146,1644534084.458255,24.865369081497192,154.97,0.0,24.39,23.25,29.5,56.0,228.5,17.1386718,16.8945312,10.9375,0.1953125,0.0,300.0,-0.03
147,1644534084.6213796,25.082849740982056,154.62,0.0,24.39,23.0,29.25,56.5,228.75,17.1386718,16.796875,10.8398437,0.0,0.0,300.0,0.0
